%Molecule Name    : M-Xylene
%Description      :  p-silicalite gcmc final run
%Temperature      :     300.00
%Max Loading/uc   :       6.00
%Number of Points : 4001
%Type of file     :    2
%  Pressure     N         sigma      
%  kpa          mol/uc    ,ol/uc     
  0.000000000000000E+000  0.000000000000000E+000  0.000000000000000E+000
  5.000000000000000E-006  2.539986813774864E-003  2.557239011479053E-003
  1.000000000000000E-005  5.287000000000000E-003  5.114478022958105E-003
  1.500000000000000E-005  7.990660064598028E-003  7.777075863748189E-003
  2.000000000000000E-005  1.071149450110584E-002  1.043967370453827E-002
  2.500000000000000E-005  1.344517144504268E-002  1.312837345732226E-002
  3.000000000000000E-005  1.618912641236010E-002  1.581707321010626E-002
  3.500000000000000E-005  1.894165817931512E-002  1.852285431387672E-002
  4.000000000000000E-005  2.170155370668068E-002  2.122863541764718E-002
  4.500000000000000E-005  2.446790351881502E-002  2.394718841755970E-002
  5.000000000000000E-005  2.724000000000000E-002  2.666574141747221E-002
  5.500000000000000E-005  3.014993831444554E-002  2.940641486094280E-002
  6.000000000000001E-005  3.307712073957440E-002  3.214708830441339E-002
  6.500000000000001E-005  3.602019661163678E-002  3.491770634659748E-002
  7.000000000000001E-005  3.897801748178167E-002  3.768832438878158E-002
  7.500000000000001E-005  4.194959445614693E-002  4.048483802254344E-002
  8.000000000000001E-005  4.493406680144724E-002  4.328135165630530E-002
  8.500000000000001E-005  4.793067831735862E-002  4.610070447381547E-002
  9.000000000000001E-005  5.093875920712748E-002  4.892005729132564E-002
  9.500000000000001E-005  5.395771193058978E-002  5.175985718603221E-002
  1.000000000000000E-004  5.698700000000000E-002  5.459965708073879E-002
  1.050000000000000E-004  5.992776766004092E-002  5.745332757655240E-002
  1.100000000000000E-004  6.287292191960625E-002  6.030699807236601E-002
  1.150000000000000E-004  6.582226935269614E-002  6.316880851552074E-002
  1.200000000000000E-004  6.877563311760734E-002  6.603061895867547E-002
  1.250000000000000E-004  7.173285090161287E-002  6.889990978444933E-002
  1.300000000000000E-004  7.469377319260555E-002  7.176920061022320E-002
  1.350000000000000E-004  7.765826181507925E-002  7.464541258446070E-002
  1.400000000000000E-004  8.062618868169988E-002  7.752162455869820E-002
  1.450000000000000E-004  8.359743472213249E-002  8.040427739568443E-002
  1.500000000000000E-004  8.657188895869858E-002  8.328693023267066E-002
  1.550000000000000E-004  8.954944770450120E-002  8.617560690116396E-002
  1.600000000000000E-004  9.253001386435740E-002  8.906428356965729E-002
  1.650000000000000E-004  9.551349632254864E-002  9.195861851043677E-002
  1.700000000000000E-004  9.849980940429903E-002  9.485295345121626E-002
  1.750000000000000E-004  0.101488872400191       9.775262355704722E-002
  1.800000000000000E-004  0.104480609144571       0.100652293662878     
  1.850000000000000E-004  0.107474947640488       0.103557011254877     
  1.900000000000000E-004  0.110471819724900       0.106461728846875     
  1.950000000000000E-004  0.113471160768885       0.109371236123047     
  2.000000000000000E-004  0.116472909408393       0.112280743399220     
  2.050000000000000E-004  0.119477007301731       0.115194807988075     
  2.100000000000000E-004  0.122483398910544       0.118108872576930     
  2.150000000000000E-004  0.125492031301521       0.121027283933819     
  2.200000000000000E-004  0.128502853966401       0.123945695290708     
  2.250000000000000E-004  0.131515818658242       0.126868261745962     
  2.300000000000000E-004  0.134530879242133       0.129790828201215     
  2.350000000000000E-004  0.137547991558800       0.132717374518880     
  2.400000000000000E-004  0.140567113299735       0.135643920836544     
  2.450000000000000E-004  0.143588203892656       0.138574286177720     
  2.500000000000000E-004  0.146611224396254       0.141504651518896     
  2.550000000000000E-004  0.149636137403302       0.144438687729076     
  2.600000000000000E-004  0.152662906951295       0.147372723939256     
  2.650000000000000E-004  0.155691498439934       0.150310294097596     
  2.700000000000000E-004  0.158721878554776       0.153247864255936     
  2.750000000000000E-004  0.161754015196511       0.156188841438164     
  2.800000000000000E-004  0.164787877415335       0.159129818620393     
  2.850000000000000E-004  0.167823435349981       0.162074084837361     
  2.900000000000000E-004  0.170860660171004       0.165018351054329     
  2.950000000000000E-004  0.173899524027935       0.167965796336064     
  3.000000000000000E-004  0.176940000000000       0.170913241617798     
  3.050000000000000E-004  0.180321171700862       0.173869309966910     
  3.100000000000000E-004  0.183710399938128       0.176825378316021     
  3.150000000000000E-004  0.187107573491738       0.179795324321737     
  3.200000000000000E-004  0.190512584420346       0.182765270327453     
  3.250000000000000E-004  0.193925327914886       0.185748722304314     
  3.300000000000001E-004  0.197345702160816       0.188732174281175     
  3.350000000000000E-004  0.200773608208431       0.191728781491249     
  3.400000000000000E-004  0.204208949850640       0.194725388701323     
  3.450000000000000E-004  0.207651633507685       0.197734819590464     
  3.500000000000001E-004  0.211101568118304       0.200744250479604     
  3.550000000000000E-004  0.214558665036896       0.203766191108520     
  3.600000000000000E-004  0.218022837936281       0.206788131737436     
  3.650000000000000E-004  0.221494002715666       0.209822284381216     
  3.700000000000000E-004  0.224972077413479       0.212856437024995     
  3.750000000000000E-004  0.228456982124748       0.215902518918925     
  3.800000000000000E-004  0.231948638922732       0.218948600812854     
  3.850000000000000E-004  0.235446971784536       0.222006343025788     
  3.900000000000000E-004  0.238951906520444       0.225064085238722     
  3.950000000000000E-004  0.242463370706754       0.228133231658090     
  4.000000000000000E-004  0.245981293621897       0.231202378077457     
  4.050000000000000E-004  0.249505606185633       0.234282684492313     
  4.100000000000000E-004  0.253036240901142       0.237362990907169     
  4.150000000000001E-004  0.256573131799844       0.240454224177661     
  4.200000000000000E-004  0.260116214388786       0.243545457448154     
  4.250000000000000E-004  0.263665425600436       0.246647394751389     
  4.300000000000000E-004  0.267220703744771       0.249749332054624     
  4.350000000000001E-004  0.270781988463501       0.252861760198283     
  4.400000000000000E-004  0.274349220686329       0.255974188341942     
  4.450000000000000E-004  0.277922342589132       0.259096903138163     
  4.500000000000000E-004  0.281501297553949       0.262219617934385     
  4.550000000000001E-004  0.285086030130688       0.265352423627390     
  4.600000000000000E-004  0.288676486000455       0.268485229320395     
  4.650000000000000E-004  0.292272611940421       0.271627938062177     
  4.700000000000000E-004  0.295874355790148       0.274770646803958     
  4.750000000000001E-004  0.299481666419296       0.277923078173053     
  4.800000000000001E-004  0.303094493696641       0.281075509542148     
  4.850000000000000E-004  0.306712788460339       0.284237490101138     
  4.900000000000001E-004  0.310336502489372       0.287399470660127     
  4.950000000000000E-004  0.313965588476121       0.290570833548004     
  5.000000000000000E-004  0.317600000000000       0.293742196435880     
  5.050000000000000E-004  0.321575728568715       0.296926104780118     
  5.100000000000000E-004  0.325561319980154       0.300110013124356     
  5.150000000000000E-004  0.329556701645593       0.303309583320795     
  5.200000000000001E-004  0.333561802211001       0.306509153517234     
  5.250000000000001E-004  0.337576551524354       0.309724159174562     
  5.300000000000001E-004  0.341600880604115       0.312939164831890     
  5.350000000000000E-004  0.345634721608833       0.316169387052034     
  5.400000000000000E-004  0.349678007807810       0.319399609272179     
  5.450000000000000E-004  0.353730673552784       0.322644836267757     
  5.500000000000000E-004  0.357792654250588       0.325890063263335     
  5.550000000000000E-004  0.361863886336748       0.329150090001254     
  5.600000000000001E-004  0.365944307249964       0.332410116739174     
  5.650000000000001E-004  0.370033855407455       0.335684744608162     
  5.700000000000001E-004  0.374132470181119       0.338959372477149     
  5.750000000000001E-004  0.378240091874480       0.342248408977200     
  5.800000000000000E-004  0.382356661700383       0.345537445477250     
  5.850000000000000E-004  0.386482121759420       0.348840703929206     
  5.900000000000000E-004  0.390616415019037       0.352143962381163     
  5.950000000000000E-004  0.394759485293314       0.355461261654796     
  6.000000000000001E-004  0.398911277223381       0.358778560928429     
  6.050000000000001E-004  0.403071736258441       0.362109725187551     
  6.100000000000001E-004  0.407240808637394       0.365440889446674     
  6.150000000000001E-004  0.411418441371013       0.368785747909959     
  6.200000000000000E-004  0.415604582224669       0.372130606373245     
  6.250000000000000E-004  0.419799179701586       0.375488993089543     
  6.300000000000000E-004  0.424002183026588       0.378847379805841     
  6.350000000000000E-004  0.428213542130334       0.382219133442898     
  6.400000000000001E-004  0.432433207634023       0.385590887079956     
  6.450000000000001E-004  0.436661130834543       0.388975850725543     
  6.500000000000001E-004  0.440897263690053       0.392360814371129     
  6.550000000000001E-004  0.445141558805982       0.395758835345658     
  6.600000000000001E-004  0.449393969421428       0.399156856320188     
  6.650000000000000E-004  0.453654449395948       0.402567786000011     
  6.700000000000000E-004  0.457922953196714       0.405978715679834     
  6.750000000000000E-004  0.462199435886031       0.409402409330438     
  6.800000000000000E-004  0.466483853109211       0.412826102981043     
  6.850000000000001E-004  0.470776161082763       0.416262419599475     
  6.900000000000001E-004  0.475076316582927       0.419698736217906     
  6.950000000000001E-004  0.479384276934505       0.423147538383764     
  7.000000000000001E-004  0.483700000000000       0.426596340549621     
  7.050000000000000E-004  0.490382141930897       0.430074226124575     
  7.100000000000000E-004  0.497108392011381       0.433552111699529     
  7.150000000000000E-004  0.503878727698565       0.437075737238810     
  7.200000000000000E-004  0.510693126619164       0.440599362778090     
  7.250000000000001E-004  0.517551566567042       0.444168682028176     
  7.300000000000001E-004  0.524454025500819       0.447738001278262     
  7.350000000000001E-004  0.531400481541523       0.451352968669484     
  7.400000000000001E-004  0.538390912970296       0.454967936060706     
  7.450000000000001E-004  0.545425298226138       0.458628506687974     
  7.500000000000000E-004  0.552503615903714       0.462289077315243     
  7.550000000000000E-004  0.559625844751188       0.465995206919568     
  7.600000000000000E-004  0.566791963668117       0.469701336523892     
  7.650000000000001E-004  0.574001951703375       0.473452981474653     
  7.700000000000001E-004  0.581255788053127       0.477204626425414     
  7.750000000000001E-004  0.588553452058840       0.481001743703346     
  7.800000000000001E-004  0.595894923205335       0.484798860981278     
  7.850000000000001E-004  0.603280181118878       0.488641408162128     
  7.900000000000000E-004  0.610709205565304       0.492483955342978     
  7.950000000000000E-004  0.618181976448185       0.496371890581805     
  8.000000000000000E-004  0.625698473807027       0.500259825820631     
  8.050000000000001E-004  0.633258677815505       0.504193107836705     
  8.100000000000001E-004  0.640862568779729       0.508126389852779     
  8.150000000000001E-004  0.648510127136549       0.512104977915067     
  8.200000000000001E-004  0.656201333451885       0.516083565977354     
  8.250000000000001E-004  0.663936168419093       0.520107419890543     
  8.300000000000001E-004  0.671714612857356       0.524131273803732     
  8.350000000000000E-004  0.679536647710116       0.528200353894779     
  8.400000000000000E-004  0.687402254043519       0.532269433985827     
  8.450000000000000E-004  0.695311413044906       0.536383701091000     
  8.500000000000001E-004  0.703264106021316       0.540497968196173     
  8.550000000000001E-004  0.711260314398025       0.544657383648565     
  8.600000000000001E-004  0.719300019717109       0.548816799100957     
  8.650000000000001E-004  0.727383203636036       0.553021324718447     
  8.700000000000001E-004  0.735509847926274       0.557225850335937     
  8.750000000000000E-004  0.743679934471935       0.561475448409581     
  8.800000000000000E-004  0.751893445268435       0.565725046483225     
  8.850000000000000E-004  0.760150362421180       0.570019679766050     
  8.900000000000001E-004  0.768450668144274       0.574314313048875     
  8.950000000000001E-004  0.776794344759252       0.578653944745069     
  9.000000000000001E-004  0.785181374693834       0.582993576441262     
  9.050000000000001E-004  0.793611740480695       0.587378170195726     
  9.100000000000001E-004  0.802085424756265       0.591762763950190     
  9.150000000000001E-004  0.810602410259541       0.596192283838453     
  9.200000000000000E-004  0.819162679830922       0.600621803726716     
  9.250000000000000E-004  0.827766216411070       0.605096214245183     
  9.300000000000001E-004  0.836413003039778       0.609570624763651     
  9.350000000000001E-004  0.845103022854864       0.614089890820178     
  9.400000000000001E-004  0.853836259091082       0.618609156876705     
  9.450000000000001E-004  0.862612695079054       0.623173243781481     
  9.500000000000001E-004  0.871432314244212       0.627737330686257     
  9.550000000000001E-004  0.880295100105762       0.632346204142985     
  9.600000000000001E-004  0.889201036275668       0.636955077599713     
  9.650000000000000E-004  0.898150106457641       0.641608703697072     
  9.700000000000001E-004  0.907142294446161       0.646262329794430     
  9.750000000000001E-004  0.916177584125496       0.650960674997810     
  9.800000000000002E-004  0.925255959468752       0.655659020201190     
  9.850000000000000E-004  0.934377404536926       0.660402051344690     
  9.900000000000000E-004  0.943541903477986       0.665145082488189     
  9.950000000000000E-004  0.952749440525952       0.669932766766858     
  1.000000000000000E-003  0.962000000000000       0.674720451045527     
  1.005000000000000E-003  0.966039061055370       0.679526619206829     
  1.010000000000000E-003  0.970074909345046       0.684332787368131     
  1.015000000000000E-003  0.974107563310516       0.689131350393913     
  1.020000000000000E-003  0.978137041197126       0.693929913419696     
  1.025000000000000E-003  0.982163361057114       0.698720957730501     
  1.030000000000000E-003  0.986186540752586       0.703512002041307     
  1.035000000000000E-003  0.990206597958431       0.708295612246735     
  1.040000000000000E-003  0.994223550165179       0.713079222452164     
  1.045000000000000E-003  0.998237414681799       0.717855481405854     
  1.050000000000000E-003   1.00224820863845       0.722631740359544     
  1.055000000000000E-003   1.00625594898915       0.727400729211986     
  1.060000000000000E-003   1.01026065251444       0.732169718064427     
  1.065000000000000E-003   1.01426233582396       0.736931516313693     
  1.070000000000000E-003   1.01826101535897       0.741693314562959     
  1.075000000000000E-003   1.02225670739485       0.746448000103475     
  1.080000000000000E-003   1.02624942804354       0.751202685643992     
  1.085000000000000E-003   1.03023919325590       0.755950334813424     
  1.090000000000000E-003   1.03422601882411       0.760697983982856     
  1.095000000000000E-003   1.03820992038390       0.765438671607211     
  1.100000000000000E-003   1.04219091341687       0.770179359231565     
  1.105000000000000E-003   1.04616901325268       0.774913158668583     
  1.110000000000000E-003   1.05014423507120       0.779646958105602     
  1.115000000000000E-003   1.05411659390466       0.784373941286532     
  1.120000000000000E-003   1.05808610463976       0.789100924467463     
  1.125000000000000E-003   1.06205278201968       0.793821161937282     
  1.130000000000000E-003   1.06601664064614       0.798541399407101     
  1.135000000000000E-003   1.06997769498134       0.803254960363251     
  1.140000000000000E-003   1.07393595934992       0.807968521319401     
  1.145000000000000E-003   1.07789144794087       0.812675473649120     
  1.150000000000000E-003   1.08184417480939       0.817382425978838     
  1.155000000000000E-003   1.08579415387872       0.822082836295136     
  1.160000000000000E-003   1.08974139894197       0.826783246611434     
  1.165000000000000E-003   1.09368592366388       0.831477180287785     
  1.170000000000000E-003   1.09762774158255       0.836171113964135     
  1.175000000000000E-003   1.10156686611116       0.840858635167929     
  1.180000000000000E-003   1.10550331053964       0.845546156371723     
  1.185000000000000E-003   1.10943708803634       0.850227328096548     
  1.190000000000000E-003   1.11336821164963       0.854908499821372     
  1.195000000000000E-003   1.11729669430950       0.859583383918159     
  1.200000000000000E-003   1.12122254882913       0.864258268014946     
  1.205000000000000E-003   1.12514578790641       0.868926925222045     
  1.210000000000000E-003   1.12906642412547       0.873595582429143     
  1.215000000000000E-003   1.13298446995816       0.878258072401355     
  1.220000000000000E-003   1.13689993776551       0.882920562373567     
  1.225000000000000E-003   1.14081283979915       0.887576943710197     
  1.230000000000000E-003   1.14472318820274       0.892233325046827     
  1.235000000000000E-003   1.14863099501336       0.896883655318780     
  1.240000000000000E-003   1.15253627216285       0.901533985590733     
  1.245000000000000E-003   1.15643903147915       0.906178321366708     
  1.250000000000000E-003   1.16033928468767       0.910822657142683     
  1.255000000000000E-003   1.16423704341251       0.915461054014491     
  1.260000000000000E-003   1.16813231917778       0.920099450886299     
  1.265000000000000E-003   1.17202512340886       0.924731963493350     
  1.270000000000000E-003   1.17591546743360       0.929364476100401     
  1.275000000000000E-003   1.17980336248356       0.933991158153385     
  1.280000000000000E-003   1.18368881969520       0.938617840206369     
  1.285000000000000E-003   1.18757185011103       0.943238744510172     
  1.290000000000000E-003   1.19145246468080       0.947859648813974     
  1.295000000000000E-003   1.19533067426260       0.952474827289850     
  1.300000000000000E-003   1.19920648962401       0.957090005765726     
  1.305000000000000E-003   1.20307992144318       0.961699509472768     
  1.310000000000000E-003   1.20695098030992       0.966309013179811     
  1.315000000000000E-003   1.21081967672676       0.970912892335733     
  1.320000000000000E-003   1.21468602111000       0.975516771491654     
  1.325000000000000E-003   1.21855002379075       0.980115075492921     
  1.330000000000000E-003   1.22241169501594       0.984713379494188     
  1.335000000000000E-003   1.22627104494930       0.989306156935518     
  1.340000000000000E-003   1.23012808367238       0.993898934376848     
  1.345000000000000E-003   1.23398282118550       0.998486233070108     
