%Molecule Name    : Toluene
%Description      :  p-silicalite gcmc final run
%Temperature      :     300.00
%Max Loading/uc   :       8.00
%Number of Points : 4001
%Type of file     :    2
%  Pressure     N         sigma      
%  kpa          mol/uc    ,ol/uc     
  0.000000000000000E+000  0.000000000000000E+000  0.000000000000000E+000
  1.000000000000000E-005  2.300000000000000E-003  2.322120533481285E-003
  2.000000000000000E-005  4.865446401775419E-003  4.644241066962570E-003
  3.000000000000000E-005  7.541651882055208E-003  7.154468456272839E-003
  4.000000000000000E-005  1.029242116893451E-002  9.664695845583108E-003
  5.000000000000000E-005  1.310000000000000E-002  1.227467252093400E-002
  6.000000000000001E-005  1.564052855923025E-002  1.488464919628489E-002
  7.000000000000001E-005  1.816925826096827E-002  1.748051243375196E-002
  8.000000000000001E-005  2.068793098359095E-002  2.007637567121904E-002
  9.000000000000001E-005  2.319784381899490E-002  2.265406636811754E-002
  1.000000000000000E-004  2.570000000000000E-002  2.523175706501605E-002
  1.100000000000000E-004  2.839654725205428E-002  2.781310190472945E-002
  1.200000000000000E-004  3.110462226858241E-002  3.039444674444285E-002
  1.300000000000000E-004  3.382330539497124E-002  3.299612453372047E-002
  1.400000000000000E-004  3.655181584866179E-002  3.559780232299808E-002
  1.500000000000000E-004  3.928948226172341E-002  3.821701429359130E-002
  1.600000000000000E-004  4.203572103322038E-002  4.083622626418452E-002
  1.700000000000000E-004  4.479002005848069E-002  4.347086534664042E-002
  1.800000000000000E-004  4.755192625988620E-002  4.610550442909631E-002
  1.900000000000000E-004  5.032103586785690E-002  4.875392531337399E-002
  2.000000000000000E-004  5.309698673182877E-002  5.140234619765167E-002
  2.100000000000000E-004  5.587945215641158E-002  5.406322752420429E-002
  2.200000000000000E-004  5.866813590163716E-002  5.672410885075690E-002
  2.300000000000000E-004  6.146276808430319E-002  5.939636547563799E-002
  2.400000000000000E-004  6.426310178573798E-002  6.206862210051908E-002
  2.500000000000000E-004  6.706891021976155E-002  6.475134653085009E-002
  2.600000000000000E-004  6.987998434954787E-002  6.743407096118111E-002
  2.700000000000000E-004  7.269613086764895E-002  7.012649274016697E-002
  2.800000000000000E-004  7.551717047239857E-002  7.281891451915282E-002
  2.900000000000000E-004  7.834293638814721E-002  7.552037115792051E-002
  3.000000000000000E-004  8.117327308759338E-002  7.822182779668822E-002
  3.100000000000000E-004  8.400803518277684E-002  8.093174341278617E-002
  3.200000000000000E-004  8.684708645773380E-002  8.364165902888410E-002
  3.300000000000001E-004  8.969029902084637E-002  8.635952829064922E-002
  3.400000000000000E-004  9.253755255889082E-002  8.907739755241434E-002
  3.500000000000001E-004  9.538873367794377E-002  9.180277337462422E-002
  3.600000000000000E-004  9.824373531883568E-002  9.452814919683411E-002
  3.700000000000000E-004  0.101102456236879       9.726063315020231E-002
  3.800000000000000E-004  0.103964800537256       9.999311710357052E-002
  3.900000000000000E-004  0.106830677258797       0.102732351827400     
  4.000000000000000E-004  0.109700000000000       0.105471586551229     
  4.100000000000000E-004  0.112175356296051       0.108207599508728     
  4.200000000000000E-004  0.114644902905825       0.110943612466226     
  4.300000000000000E-004  0.117108791335358       0.113667098663587     
  4.400000000000000E-004  0.119567165710738       0.116390584860947     
  4.500000000000000E-004  0.122020163297058       0.119102167621003     
  4.600000000000000E-004  0.124467914970151       0.121813750381058     
  4.700000000000000E-004  0.126910545646351       0.124513996277618     
  4.800000000000001E-004  0.129348174674816       0.127214242174177     
  4.900000000000001E-004  0.131780916196391       0.129903668347587     
  5.000000000000000E-004  0.134208879472500       0.132593094520997     
  5.100000000000000E-004  0.136632169187094       0.135272174795638     
  5.200000000000001E-004  0.139050885724373       0.137951255070278     
  5.300000000000001E-004  0.141465125424641       0.140620425108773     
  5.400000000000000E-004  0.143874980820395       0.143289595147268     
  5.500000000000000E-004  0.146280540854520       0.145949256823171     
  5.600000000000001E-004  0.148681891082242       0.148608918499074     
  5.700000000000001E-004  0.151079113858311       0.151259443630231     
  5.800000000000000E-004  0.153472288510750       0.153909968761388     
  5.900000000000000E-004  0.155861491502333       0.156551702316279     
  6.000000000000001E-004  0.158246796580859       0.159193435871169     
  6.100000000000001E-004  0.160628274919175       0.161826698737719     
  6.200000000000000E-004  0.163005995245798       0.164459961604270     
  6.300000000000000E-004  0.165380023966914       0.167085052993038     
  6.400000000000001E-004  0.167750425280447       0.169710144381806     
  6.500000000000001E-004  0.170117261282833       0.172327343921734     
  6.600000000000001E-004  0.172480592069070       0.174944543461662     
  6.700000000000000E-004  0.174840475826555       0.177554113035852     
  6.800000000000000E-004  0.177196968923193       0.180163682610041     
  6.900000000000001E-004  0.179550125990202       0.182765867970509     
  7.000000000000001E-004  0.181900000000000       0.185368053330977     
  7.100000000000000E-004  0.185290333863594       0.187977758157246     
  7.200000000000000E-004  0.188695114587998       0.190587462983515     
  7.300000000000001E-004  0.192114201794334       0.193219147030092     
  7.400000000000001E-004  0.195547458376267       0.195850831076669     
  7.500000000000000E-004  0.198994750380431       0.198504077845500     
  7.600000000000000E-004  0.202455946892752       0.201157324614331     
  7.700000000000001E-004  0.205930919930325       0.203831736300559     
  7.800000000000001E-004  0.209419544338491       0.206506147986788     
  7.900000000000000E-004  0.212921697692799       0.209201344179859     
  8.000000000000000E-004  0.216437260205574       0.211896540372930     
  8.100000000000001E-004  0.219966114636812       0.214612156878310     
  8.200000000000001E-004  0.223508146209145       0.217327773383689     
  8.300000000000001E-004  0.227063242526656       0.220063461151312     
  8.400000000000000E-004  0.230631293497315       0.222799148918935     
  8.500000000000001E-004  0.234212191258833       0.225554573066399     
  8.600000000000001E-004  0.237805830107759       0.228309997213862     
  8.700000000000001E-004  0.241412106431617       0.231084836133961     
  8.800000000000000E-004  0.245030918643942       0.233859675054061     
  8.900000000000001E-004  0.248662167122054       0.236653619597635     
  9.000000000000001E-004  0.252305754147410       0.239447564141209     
  9.100000000000001E-004  0.255961583848427       0.242260316867394     
  9.200000000000000E-004  0.259629562145618       0.245073069593579     
  9.300000000000001E-004  0.263309596698948       0.247904344080562     
  9.400000000000001E-004  0.267001596857281       0.250735618567546     
  9.500000000000001E-004  0.270705473609822       0.253585138777755     
  9.600000000000001E-004  0.274421139539453       0.256434658987964     
  9.700000000000001E-004  0.278148508777862       0.259302158682328     
  9.800000000000002E-004  0.281887496962402       0.262169658376692     
  9.900000000000000E-004  0.285638021194561       0.265054880573276     
  1.000000000000000E-003  0.289400000000000       0.267940102769860     
  1.010000000000000E-003  0.292524538584513       0.270836381877626     
  1.020000000000000E-003  0.295651529373536       0.273732660985391     
  1.030000000000000E-003  0.298780950221432       0.276633443585013     
  1.040000000000000E-003  0.301912779395720       0.279534226184635     
  1.050000000000000E-003  0.305046995565464       0.282439432461935     
  1.060000000000000E-003  0.308183577790102       0.285344638739234     
  1.070000000000000E-003  0.311322505508683       0.288254191775262     
  1.080000000000000E-003  0.314463758529498       0.291163744811289     
  1.090000000000000E-003  0.317607317020096       0.294077570425576     
  1.100000000000000E-003  0.320753161497648       0.296991396039863     
  1.110000000000000E-003  0.323901272819660       0.299909422644855     
  1.120000000000000E-003  0.327051632175017       0.302827449249846     
  1.130000000000000E-003  0.330204221075336       0.305749607715539     
  1.140000000000000E-003  0.333359021346621       0.308671766181233     
  1.150000000000000E-003  0.336516015121204       0.311597989709133     
  1.160000000000000E-003  0.339675184829963       0.314524213237033     
  1.170000000000000E-003  0.342836513194803       0.317454437242638     
  1.180000000000000E-003  0.345999983221384       0.320384661248243     
  1.190000000000000E-003  0.349165578192100       0.323318823251347     
  1.200000000000000E-003  0.352333281659281       0.326252985254451     
  1.210000000000000E-003  0.355503077438618       0.329191024776619     
  1.220000000000000E-003  0.358674949602811       0.332129064298787     
  1.230000000000000E-003  0.361848882475406       0.335070922767427     
  1.240000000000000E-003  0.365024860624839       0.338012781236067     
  1.250000000000000E-003  0.368202868858669       0.340958401894577     
  1.260000000000000E-003  0.371382892217982       0.343904022553086     
  1.270000000000000E-003  0.374564915971982       0.346853350376588     
  1.280000000000000E-003  0.377748925612738       0.349802678200091     
  1.290000000000000E-003  0.380934906850101       0.352755659816345     
  1.300000000000000E-003  0.384122845606767       0.355708641432600     
  1.310000000000000E-003  0.387312728013498       0.358665225047683     
  1.320000000000000E-003  0.390504540404476       0.361621808662766     
  1.330000000000000E-003  0.393698269312807       0.364581943991168     
  1.340000000000000E-003  0.396893901466144       0.367542079319570     
  1.350000000000000E-003  0.400091423782450       0.370505717518395     
  1.360000000000000E-003  0.403290823365877       0.373469355717219     
  1.370000000000000E-003  0.406492087502767       0.376436449324168     
  1.380000000000000E-003  0.409695203657767       0.379403542931118     
  1.390000000000000E-003  0.412900159470052       0.382374045806013     
  1.400000000000000E-003  0.416106942749659       0.385344548680909     
  1.410000000000000E-003  0.419315541473918       0.388318415950486     
  1.420000000000000E-003  0.422525943783989       0.391292283220063     
  1.430000000000000E-003  0.425738137981491       0.394269471225816     
  1.440000000000000E-003  0.428952112525218       0.397246659231568     
  1.450000000000000E-003  0.432167856027958       0.400227125480439     
  1.460000000000000E-003  0.435385357253385       0.403207591729309     
  1.470000000000000E-003  0.438604605113041       0.406191294847025     
  1.480000000000000E-003  0.441825588663397       0.409174997964741     
  1.490000000000000E-003  0.445048297102993       0.412161897651629     
  1.500000000000000E-003  0.448272719769649       0.415148797338517     
  1.510000000000000E-003  0.451498846137758       0.418138854327627     
  1.520000000000000E-003  0.454726665815636       0.421128911316737     
  1.530000000000000E-003  0.457956168542955       0.424122087334125     
  1.540000000000000E-003  0.461187344188230       0.427115263351514     
  1.550000000000000E-003  0.464420182746377       0.430111521078558     
  1.560000000000000E-003  0.467654674336328       0.433107778805601     
  1.570000000000000E-003  0.470890809198713       0.436107081843197     
  1.580000000000000E-003  0.474128577693590       0.439106384880794     
  1.590000000000000E-003  0.477367970298239       0.442108697715348     
  1.600000000000000E-003  0.480608977605010       0.445111010549902     
  1.610000000000000E-003  0.483851590319219       0.448116298520974     
  1.620000000000000E-003  0.487095799257099       0.451121586492047     
  1.630000000000000E-003  0.490341595343800       0.454129815761574     
  1.640000000000000E-003  0.493588969611436       0.457138045031101     
  1.650000000000000E-003  0.496837913197181       0.460149182554084     
  1.660000000000000E-003  0.500088417341407       0.463160320077067     
  1.670000000000000E-003  0.503340473385870       0.466174333573649     
  1.680000000000000E-003  0.506594072771934       0.469188347070231     
  1.690000000000000E-003  0.509849207038840       0.472205204999075     
  1.700000000000000E-003  0.513105867822013       0.475222062927919     
  1.710000000000000E-003  0.516364046851411       0.478241734460819     
  1.720000000000000E-003  0.519623735949908       0.481261405993720     
  1.730000000000000E-003  0.522884927031718       0.484283860991368     
  1.740000000000000E-003  0.526147612100850       0.487306315989016     
  1.750000000000000E-003  0.529411783249600       0.490331524977860     
  1.760000000000000E-003  0.532677432657081       0.493356733966703     
  1.770000000000000E-003  0.535944552587778       0.496384668116837     
  1.780000000000000E-003  0.539213135390141       0.499412602266972     
  1.790000000000000E-003  0.542483173495205       0.502443233371007     
  1.800000000000000E-003  0.545754659415244       0.505473864475042     
  1.810000000000000E-003  0.549027585742453       0.508507164927888     
  1.820000000000000E-003  0.552301945147654       0.511540465380734     
  1.830000000000000E-003  0.555577730379039       0.514576408160260     
  1.840000000000000E-003  0.558854934260932       0.517612350939786     
  1.850000000000000E-003  0.562133549692581       0.520650909588303     
  1.860000000000000E-003  0.565413569646972       0.523689468236820     
  1.870000000000000E-003  0.568694987169678       0.526730616843347     
  1.880000000000000E-003  0.571977795377715       0.529771765449874     
  1.890000000000000E-003  0.575261987458442       0.532815478633138     
  1.900000000000000E-003  0.578547556668467       0.535859191816402     
  1.910000000000000E-003  0.581834496332582       0.538905444708548     
  1.920000000000000E-003  0.585122799842726       0.541951697600694     
  1.930000000000000E-003  0.588412460656957       0.545000465831655     
  1.940000000000000E-003  0.591703472298453       0.548049234062616     
  1.950000000000000E-003  0.594995828354535       0.551100493745118     
  1.960000000000000E-003  0.598289522475701       0.554151753427620     
  1.970000000000000E-003  0.601584548374686       0.557205481142784     
  1.980000000000000E-003  0.604880899825541       0.560259208857948     
  1.990000000000000E-003  0.608178570662725       0.563315381641468     
  2.000000000000000E-003  0.611477554780222       0.566371554424987     
  2.010000000000000E-003  0.614777846130669       0.569430149753843     
  2.020000000000000E-003  0.618079438724501       0.572488745082698     
  2.030000000000000E-003  0.621382326629123       0.575549740862391     
  2.040000000000000E-003  0.624686503968081       0.578610736642084     
  2.050000000000000E-003  0.627991964920266       0.581674111194359     
  2.060000000000000E-003  0.631298703719118       0.584737485746635     
  2.070000000000000E-003  0.634606714651858       0.587803217797675     
  2.080000000000000E-003  0.637915992058727       0.590868949848715     
  2.090000000000000E-003  0.641226530332240       0.593937018517772     
  2.100000000000000E-003  0.644538323916459       0.597005087186830     
  2.110000000000000E-003  0.647851367306272       0.600075471975292     
  2.120000000000000E-003  0.651165655046690       0.603145856763755     
  2.130000000000000E-003  0.654481181732159       0.606218537544608     
  2.140000000000000E-003  0.657797942005880       0.609291218325462     
  2.150000000000000E-003  0.661115930559141       0.612366175333145     
  2.160000000000000E-003  0.664435142130670       0.615441132340828     
  2.170000000000000E-003  0.667755571505987       0.618518346161451     
  2.180000000000000E-003  0.671077213516778       0.621595559982073     
  2.190000000000000E-003  0.674400063040273       0.624675011543990     
  2.200000000000000E-003  0.677724114998644       0.627754463105908     
  2.210000000000000E-003  0.681049364358400       0.630836133670628     
  2.220000000000000E-003  0.684375806129811       0.633917804235349     
  2.230000000000000E-003  0.687703435366322       0.637001675388766     
  2.240000000000000E-003  0.691032247163995       0.640085546542182     
  2.250000000000000E-003  0.694362236660949       0.643171600186108     
  2.260000000000000E-003  0.697693399036816       0.646257653830034     
  2.270000000000000E-003  0.701025729512203       0.649345872174034     
  2.280000000000000E-003  0.704359223348167       0.652434090518034     
  2.290000000000000E-003  0.707693875845694       0.655524456071538     
  2.300000000000000E-003  0.711029682345190       0.658614821625042     
  2.310000000000000E-003  0.714366638225982       0.661707317189722     
  2.320000000000000E-003  0.717704738905826       0.664799812754403     
  2.330000000000000E-003  0.721043979840419       0.667894421416818     
  2.340000000000000E-003  0.724384356522928       0.670989030079233     
  2.350000000000000E-003  0.727725864483522       0.674085735203709     
  2.360000000000000E-003  0.731068499288908       0.677182440328185     
  2.370000000000000E-003  0.734412256541883       0.680281225549938     
  2.380000000000000E-003  0.737757131880885       0.683380010771692     
  2.390000000000000E-003  0.741103120979561       0.686480859990181     
  2.400000000000000E-003  0.744450219546332       0.689581709208669     
  2.410000000000000E-003  0.747798423323970       0.692684606581155     
  2.420000000000000E-003  0.751147728089186       0.695787503953641     
  2.430000000000000E-003  0.754498129652215       0.698892433888966     
  2.440000000000000E-003  0.757849623856415       0.701997363824292     
  2.450000000000000E-003  0.761202206577872       0.705104310976855     
  2.460000000000000E-003  0.764555873725007       0.708211258129419     
  2.470000000000000E-003  0.767910621238196       0.711320207393339     
  2.480000000000000E-003  0.771266445089385       0.714429156657260     
  2.490000000000000E-003  0.774623341281728       0.717540093160731     
  2.500000000000000E-003  0.777981305849211       0.720651029664201     
  2.510000000000000E-003  0.781340334856299       0.723763938764017     
  2.520000000000000E-003  0.784700424397576       0.726876847863833     
  2.530000000000000E-003  0.788061570597401       0.729991715140089     
  2.540000000000000E-003  0.791423769609561       0.733106582416345     
  2.550000000000000E-003  0.794787017616931       0.736223393667301     
  2.560000000000000E-003  0.798151310831144       0.739340204918258     
  2.570000000000000E-003  0.801516645492264       0.742458946155357     
  2.580000000000000E-003  0.804883017868457       0.745577687392456     
  2.590000000000000E-003  0.808250424255678       0.748698344835496     
  2.600000000000000E-003  0.811618860977356       0.751819002278537     
  2.610000000000000E-003  0.814988324384085       0.754941562350988     
  2.620000000000000E-003  0.818358810853321       0.758064122423440     
  2.630000000000000E-003  0.821730316789079       0.761188571747903     
  2.640000000000000E-003  0.825102838621644       0.764313021072366     
  2.650000000000000E-003  0.828476372807276       0.767439346466163     
  2.660000000000000E-003  0.831850915827922       0.770565671859959     
  2.670000000000000E-003  0.835226464190941       0.773693860330856     
  2.680000000000000E-003  0.838603014428819       0.776822048801753     
  2.690000000000000E-003  0.841980563098897       0.779952087543809     
